,Time,Angle,LinAcc,GravX,GravY,GravZ,LinVel1,LinVel2
0,0.029004,2,0.542125446737192,-9.77,0.2,-0.7,0.0,0.0
1,0.045812,2,0.6415605972938176,-9.78,0.0,-0.67,5.143258117800245,10.7682315936698
2,0.065468,2,0.48083261120685233,-9.78,-0.14,-0.65,5.133384996147387,10.698907641666162
3,0.08526399999999999,2,1.55161206491829,-9.78,-0.29,-0.63,5.129601156235375,10.638669946613668
4,0.10214799999999999,2,2.2294842452908252,-9.77,-0.44,-0.59,5.137820711841128,10.59023512920767
5,0.12211599999999999,2,3.1596993527865904,-9.77,-0.57,-0.55,5.169227779893896,10.563685905794095
6,0.13930399999999998,2,3.3419904248815553,-9.76,-0.7,-0.51,5.204420509155201,10.539206595286595
7,0.15623199999999998,2,2.9047202963452436,-9.76,-0.77,-0.49,5.236751331183858,10.511723922374276
8,0.17604399999999998,2,2.3478500803926985,-9.75,-0.92,-0.45,5.267035926607491,10.48340105206946
9,0.192968,2,2.6590975912891954,-9.73,-1.08,-0.41,5.28746661118479,10.445415010810452
10,0.21265599999999998,3,1.6888457596832223,-9.72,-1.18,-0.36,5.305532912860498,10.407861332700643
11,0.23246399999999998,4,1.860537556729237,-9.71,-1.27,-0.3,5.311154390451528,10.362659592609612
12,0.249248,5,3.0226809292414574,-9.7,-1.35,-0.21,5.320091613592312,10.323284729687096
13,0.26944399999999996,6,4.190763653560053,-9.7,-1.39,-0.16,5.352519313195661,10.315771260627443
14,0.27843999999999997,6,4.190763653560053,-9.7,-1.39,-0.16,5.360396905822716,10.273116537998087
15,0.295352,8,5.120722605257973,-9.68,-1.52,0.01,5.401177937455799,10.271499633345872
16,0.31512799999999996,10,6.189483015567617,-9.67,-1.6,0.14,5.4681970223604175,10.302980114067815
17,0.335088,12,5.59433642177515,-9.66,-1.65,0.3,5.542697874252411,10.340227799595713
18,0.351976,14,5.720043706126728,-9.65,-1.65,0.46,5.603667024424309,10.355411592938935
19,0.371784,17,5.816743074951824,-9.65,-1.62,0.6,5.685080171106867,10.389317096761957
20,0.388936,21,5.709062970400661,-9.65,-1.53,0.71,5.75625842980367,10.407807576950118
21,0.406256,24,5.837987666996223,-9.66,-1.46,0.75,5.82898604707076,10.427450203013194
22,0.426516,27,4.241579894331828,-9.69,-1.25,0.8,5.902795736431447,10.449201389952666
23,0.443316,31,1.7876800608610033,-9.72,-0.97,0.84,5.92757795366143,10.419492341119504
24,0.46293999999999996,33,1.8067097165842663,-9.74,-0.68,0.86,5.917590859041453,10.374405661159015
25,0.482844,36,3.222948960191582,-9.75,-0.44,0.87,5.881997507135184,10.344105991853507
26,0.49967999999999996,39,4.348402005334833,-9.76,-0.23,0.87,5.839456756720086,10.327486791824528
27,0.50876,39,4.348402005334833,-9.76,-0.23,0.87,5.806161708080994,10.286615449576185
28,0.529204,40,4.6821576222933805,-9.76,0.0,0.87,5.785678685236741,10.298570997633021
29,0.54614,41,4.30008139457848,-9.76,0.27,0.89,5.786515111789308,10.29427776517111
30,0.566388,41,3.9525561349587433,-9.74,0.55,0.91,5.782298896460473,10.297472635063365
31,0.586,41,3.704996626179301,-9.72,0.83,0.92,5.764941721284239,10.292207764982303
32,0.602924,40,3.48099123813893,-9.69,1.13,0.93,5.744714685060794,10.27266076183338
33,0.622836,38,2.6184346468835153,-9.65,1.44,0.94,5.729468625294963,10.253031813487883
34,0.639612,36,1.8860805921274946,-9.6,1.75,0.95,5.72212250424804,10.210460854855928
35,0.6486959999999999,36,1.8860805921274946,-9.6,1.75,0.95,5.712903814467158,10.147239178498031
36,0.668852,34,2.67127310471992,-9.53,2.05,0.96,5.72324468201837,10.112813356598078
37,0.687176,33,2.3717082451262845,-9.47,2.34,0.96,5.7407901926128195,10.078662319268588
38,0.7041999999999999,31,1.8616927780920245,-9.4,2.61,0.95,5.75464530415197,10.03434219632144
39,0.724192,29,1.8679400418642993,-9.32,2.87,0.95,5.757164363811044,9.991268773532942
40,0.741232,27,2.1272517481483004,-9.24,3.11,0.95,5.745157827264071,9.944952975127068
41,0.7608079999999999,26,2.7982315844118406,-9.16,3.34,0.97,5.729842243410656,9.912808773529385
42,0.7811159999999999,24,3.192365893816058,-9.07,3.57,1.0,5.712582893774855,9.89328246786653
43,0.7979839999999999,22,3.1060264004029325,-9.02,3.69,1.01,5.693358566353353,9.866048276019193
44,0.818444,20,3.24855352426276,-8.92,3.91,1.04,5.667761229574396,9.850700796191742
45,0.8368599999999999,18,3.225848725529454,-8.82,4.14,1.07,5.63695576982137,9.829962259651046
46,0.85386,17,2.2051077071199945,-8.71,4.37,1.08,5.606758899241317,9.795770556871785
47,0.873632,15,1.6577997466521703,-8.6,4.58,1.05,5.57827105454331,9.753604427502996
48,0.890556,14,1.5124483462254175,-8.5,4.78,0.97,5.553634698631335,9.700076234408144
49,0.910692,13,1.6136294494090022,-8.41,4.96,0.86,5.5357659195391005,9.65119475319781
50,0.9307559999999999,11,1.3751363568752009,-8.33,5.11,0.73,5.5289148760697655,9.600823219309671
51,0.947552,11,1.357276685130928,-8.26,5.24,0.59,5.526138517399087,9.543415191579658
52,0.9676239999999999,10,1.9032866310674281,-8.22,5.3,0.53,5.522386192081233,9.495783372564244
53,0.9861479999999999,10,1.6456305782282974,-8.16,5.42,0.43,5.506102604694153,9.44829861129996
54,1.003124,10,1.7353385836775483,-8.1,5.5,0.38,5.4759276825091785,9.396641445089434
55,1.023032,10,2.2663847863944024,-8.07,5.54,0.37,5.4293565449565255,9.356119767058349
56,1.039776,9,2.1275807857752427,-8.08,5.54,0.36,5.385772210421265,9.312551214371773
57,1.048788,9,2.1275807857752427,-8.08,5.54,0.36,5.354343010842321,9.251370139956396
58,1.06896,9,3.7981706122816545,-8.09,5.52,0.34,5.305081084974734,9.230782436100418
59,1.0868959999999999,8,3.809160012391183,-8.12,5.47,0.33,5.257928567793877,9.218650144685702
60,1.1038919999999999,8,3.128881589322293,-8.17,5.4,0.29,5.21504604361385,9.197254789760283
61,1.123788,7,2.321055794245369,-8.23,5.32,0.2,5.171057174040957,9.171115934395232
62,1.140764,7,1.3866145823551692,-8.3,5.21,0.09,5.134883878772845,9.122231808095037
63,1.16004,7,1.315560716956842,-8.38,5.08,-0.04,5.097991575661565,9.067920541173024
64,1.16908,7,1.315560716956842,-8.38,5.08,-0.04,5.069168024253973,8.999458377597533
65,1.186744,7,1.7448495637160242,-8.47,4.93,-0.19,5.031218092364287,8.946133088739654
66,1.2036879999999999,4,13.184312647991929,-8.58,4.73,-0.32,5.002905006780714,8.992258118540462
67,1.223588,0,14.164829684821488,-8.7,4.49,-0.42,4.989949218796111,9.184027252295174
68,1.240564,-1,20.640188952623472,-8.87,4.14,-0.4,4.961776024851761,9.399097418033028
69,1.26012,-1,13.269777692184597,-8.97,3.92,-0.32,4.951803470358472,9.650314239429179
70,1.2692679999999998,-1,13.269777692184597,-8.97,3.92,-0.32,4.9402495598154985,9.691351333300501
71,1.286884,0,7.806324359133433,-9.05,3.75,-0.22,4.991574800355392,9.79663480771173
72,1.3038999999999998,0,9.728540486630047,-9.14,3.54,-0.13,4.985791657863285,9.865466605362702
73,1.323752,0,11.424876366945947,-9.22,3.31,-0.06,4.870848331911099,9.995080588594519
74,1.34084,0,10.526390644470688,-9.3,3.1,-0.09,4.778667179964814,10.102277381483281
75,1.360304,0,4.387926617435619,-9.36,2.9,-0.19,4.724130477919415,10.167068684619373
76,1.369408,0,4.387926617435619,-9.36,2.9,-0.19,4.697234612011485,10.126661536087724
77,1.386744,0,4.044514804027796,-9.41,2.72,-0.28,4.659458913008779,10.119399105872187
78,1.403548,0,4.325551987897036,-9.46,2.52,-0.34,4.6237787741978345,10.109369574601159
79,1.4233719999999999,0,1.7700564962734946,-9.51,2.33,-0.37,4.605924079719777,10.089434413439475
80,1.440308,0,1.2766362050325848,-9.56,2.13,-0.39,4.594683334292197,10.034878974777353
81,1.449388,0,1.2766362050325848,-9.56,2.13,-0.39,4.578664546420961,9.966115999062268
82,1.469468,0,1.5111584959890874,-9.6,1.95,-0.41,4.562283615839728,9.913750625403743
83,1.4785679999999999,0,1.5111584959890874,-9.6,1.95,-0.41,4.54134217566498,9.847147335260464
84,1.495404,0,1.223968953854631,-9.64,1.69,-0.44,4.523210905426117,9.789816805676468
85,1.515512,0,1.4384366513684221,-9.67,1.52,-0.46,4.507129054843052,9.736229799174598
86,1.5347,0,1.1407015385279358,-9.7,1.34,-0.48,4.48864811273334,9.680619218511683
87,1.5517159999999999,0,0.5388877434122992,-9.72,1.17,-0.5,4.470713138897253,9.61455433166565
88,1.57158,0,0.2839013913315678,-9.74,1.01,-0.51,4.453064182562102,9.542371440895144
89,1.588256,0,0.5770615218501404,-9.75,0.84,-0.52,4.434309480746405,9.469195317208472
90,1.60738,0,0.9266606714434362,-9.76,0.76,-0.52,4.417641551156537,9.403219076363964
91,1.6275039999999998,0,0.5590169943749475,-9.77,0.6,-0.52,4.401798733985487,9.337813132580646
92,1.6443919999999999,0,0.4589117562233506,-9.78,0.44,-0.52,4.380735730263587,9.26605369049392
93,1.66444,0,0.8278888814327682,-9.78,0.27,-0.52,4.350559073428968,9.198597747629002
94,1.684064,0,0.7079548008171144,-9.79,0.1,-0.53,4.316589526773466,9.133312613382456
95,1.700872,0,0.4589117562233506,-9.79,-0.06,-0.53,4.287633565268424,9.062764127471043
96,1.7207599999999998,0,0.5475399528801529,-9.78,-0.24,-0.54,4.2633007794496285,8.992417450809587
97,1.73752,0,0.26851443164195105,-9.78,-0.41,-0.56,4.243960561800619,8.9189011540951
98,1.754452,0,0.5394441583704471,-9.77,-0.51,-0.57,4.227409550310099,8.845386499061362
99,1.774552,0,2.171405075060846,-9.76,-0.7,-0.57,4.218945493866107,8.792275701400566
100,1.79154,0,2.7010738605228846,-9.74,-0.9,-0.56,4.218039068385822,8.753307705022632
101,1.810684,0,3.383031185194721,-9.72,-1.1,-0.54,4.2298189050113235,8.731189926063461
102,1.8305719999999999,0,3.534473086614184,-9.7,-1.3,-0.5,4.25099989511202,8.719622756085547
103,1.847332,0,3.0430248109405875,-9.67,-1.51,-0.46,4.267906862275555,8.694387356010274
104,1.867524,0,2.6697752714414,-9.66,-1.62,-0.43,4.290523034264516,8.671708953185222
105,1.8854039999999999,2,3.2709937327974203,-9.62,-1.85,-0.37,4.313553799181911,8.644464595626335
106,1.902348,2,3.36609566114809,-9.58,-2.06,-0.3,4.342048440134365,8.62033918451506
107,1.922172,3,4.158821948581112,-9.54,-2.22,-0.22,4.387621492745877,8.614571335405916
108,1.9392319999999998,5,4.681516848202087,-9.51,-2.38,-0.12,4.427322196250919,8.609624592885694
109,1.958472,6,4.630993413944788,-9.47,-2.53,0.0,4.472248320409868,8.618856109150768
110,1.97878,8,6.923395120892639,-9.43,-2.65,0.12,4.538897468056085,8.655824537876725
111,1.9955839999999998,12,8.00800849150399,-9.42,-2.69,0.19,4.608254722759872,8.700923358571298
112,2.015972,15,6.049595027768388,-9.41,-2.73,0.32,4.679840835486044,8.763871736389984
113,2.034464,19,4.700053191188372,-9.42,-2.67,0.44,4.715044372326122,8.782908151365673
114,2.05146,22,3.9127739520703213,-9.45,-2.55,0.53,4.740651703650566,8.775745123972305
115,2.0713239999999997,26,3.164016434849857,-9.49,-2.36,0.58,4.774910919294939,8.765676973638415
116,2.088412,29,2.152812114421507,-9.56,-2.05,0.62,4.792556437503713,8.730749124306609
117,2.107504,33,0.4305810028322197,-9.6,-1.87,0.64,4.787045501352633,8.67505536254713
118,2.127736,36,1.503861695768597,-9.66,-1.51,0.67,4.759725540399976,8.614269352429396
119,2.144772,38,2.384554465723104,-9.71,-1.18,0.66,4.736800052931357,8.5670360488362
120,2.16514,39,2.9196746394076176,-9.74,-0.85,0.64,4.742158884899667,8.54069948558607
121,2.18384,41,3.545264447118156,-9.77,-0.49,0.61,4.768074291192198,8.520791833588305
122,2.200752,41,2.570233452431899,-9.79,-0.09,0.52,4.777311376977696,8.492149651370118
123,2.2207239999999997,41,2.9695454197570377,-9.79,0.29,0.41,4.76356297346485,8.467115050731016
124,2.237748,41,2.6680704638371155,-9.77,0.68,0.29,4.738887368942494,8.434747604675389
125,2.257208,40,1.6613849644197458,-9.76,0.89,0.24,4.709025986742823,8.396518373535546
126,2.2773,38,1.2475576139000555,-9.71,1.33,0.13,4.671342827471843,8.345386778220565
127,2.2942,36,0.6703730304837747,-9.64,1.77,0.03,4.639383801555874,8.281238459708828
128,2.3144199999999997,35,1.394775967673662,-9.55,2.19,-0.06,4.608648298036716,8.221762283623416
129,2.333444,33,0.8829496021857647,-9.45,2.61,-0.17,4.576677076045923,8.163073176787139
130,2.350364,30,1.0005498488331304,-9.32,3.01,-0.27,4.544896822361004,8.098652749685979
131,2.359428,30,1.0005498488331304,-9.32,3.01,-0.27,4.517577577150009,8.02736690105902
132,2.379228,26,1.6967321532876072,-9.13,3.54,-0.39,4.475088268188304,7.973715160423233
133,2.396044,23,2.5100000000000002,-9.01,3.84,-0.42,4.427654327467265,7.928730531911295
134,2.41636,20,2.9284296132910557,-8.95,3.97,-0.42,4.369589686292337,7.903619267466324
135,2.434252,17,2.8545577590933418,-8.84,4.21,-0.4,4.312591430428302,7.8749990400428915
136,2.451192,14,2.4491018761987013,-8.74,4.41,-0.33,4.257246727959895,7.839566204697035
137,2.470996,12,2.131783291050007,-8.65,4.59,-0.25,4.198255205717451,7.80457129716635
138,2.4879599999999997,9,1.8485940603604674,-8.56,4.76,-0.17,4.146664357803502,7.75797802540423
139,2.507676,8,2.1435951110226017,-8.48,4.92,-0.12,4.088353532283107,7.716978193798946
140,2.527764,6,2.0164324932910596,-8.4,5.04,-0.1,4.027152368354231,7.67840667859989
141,2.5444839999999997,5,1.0813417591122614,-8.37,5.1,-0.13,3.9823708959023945,7.623949238893199
142,2.564352,5,3.5941758443348317,-8.36,5.11,-0.16,3.9474638966351607,7.590040998309063
143,2.582992,5,2.753579488592984,-8.35,5.13,-0.26,3.9083450737157888,7.568847245555169
144,2.5998159999999997,5,1.9656551070826234,-8.36,5.1,-0.36,3.858715610188933,7.528190614517209
145,2.608828,5,1.9656551070826234,-8.36,5.1,-0.36,3.8208079747561974,7.465550265885459
146,2.6287719999999997,5,2.767869216563528,-8.48,4.89,-0.53,3.7566983756457804,7.432398137984076
147,2.6454999999999997,3,8.876942041040936,-8.59,4.67,-0.63,3.704628244953648,7.4494405068858995
148,2.66574,2,16.47310535387909,-8.65,4.55,-0.68,3.7638211087677664,7.62562815406571
149,2.6838159999999998,2,8.800568163476719,-8.74,4.37,-0.7,3.8092673525142526,7.773696782858788
150,2.700768,3,8.820572543775148,-8.81,4.23,-0.71,3.825661141538747,7.842698739036678
151,2.720568,3,7.787592696077524,-8.92,3.99,-0.77,3.8848026661632193,7.926764742454436
152,2.737644,3,12.479971955096694,-9.03,3.72,-0.8,3.8333717356600303,8.019454376989378
153,2.75726,2,10.433283279965133,-9.12,3.47,-0.85,3.7270627897454416,8.163832751878086
154,2.777336,0,1.6371316379570704,-9.22,3.19,-0.94,3.6543742884702644,8.204640744367406
155,2.794084,-1,3.4734708865916812,-9.29,2.93,-1.02,3.624013783856322,8.167082097451194
156,2.814044,-1,8.403790811294627,-9.33,2.8,-1.05,3.621005432196287,8.20526233673932
157,2.8327039999999997,-1,4.932889619685403,-9.4,2.56,-1.09,3.6266856255689586,8.249338732703581
158,2.849596,-1,2.1183484132691675,-9.44,2.38,-1.11,3.622658251327815,8.228538656673134
159,2.858724,-1,2.1183484132691675,-9.44,2.38,-1.11,3.609155373328975,8.167520108532674
160,2.878632,-1,2.7390509305231987,-9.49,2.13,-1.16,3.5905938493050193,8.135515829144001
161,2.8954519999999997,-1,3.516987347148124,-9.52,1.97,-1.22,3.5554762576362235,8.107774278602434
162,2.9157439999999997,-1,2.4148705969471735,-9.54,1.88,-1.24,3.5103357811780787,8.087604076846445
163,2.933472,-1,1.235556554755791,-9.56,1.71,-1.29,3.4711267396849736,8.039606630662359
164,2.95042,-1,0.9249324299644812,-9.59,1.53,-1.33,3.440806511389595,7.977559781862097
165,2.9702159999999997,-1,0.7428324171709255,-9.61,1.35,-1.37,3.419776487694748,7.913712485862263
166,2.979256,-1,0.7428324171709255,-9.61,1.35,-1.37,3.4017765485515232,7.840072858456706
167,2.995968,-1,0.7406753674856482,-9.63,1.09,-1.42,3.388268728985106,7.7721142170485145
168,3.0161279999999997,-1,0.5428627819255986,-9.64,1.01,-1.44,3.3772456256442522,7.704697449137799
169,3.0336119999999998,-1,0.6966347680097513,-9.65,0.85,-1.46,3.3595310661464737,7.635178304262553
170,3.0504759999999997,-1,0.8940357934669059,-9.66,0.69,-1.48,3.3375496407704555,7.5682360059801415
171,3.059396,-1,0.8940357934669059,-9.66,0.69,-1.48,3.3160991548849235,7.4958559728010865
172,3.079188,-1,1.3268760303811356,-9.67,0.44,-1.51,3.2938756410609726,7.437479283753105
173,3.095824,-1,1.5164761785138599,-9.68,0.29,-1.53,3.2736664581371278,7.380775454969912
174,3.1159399999999997,-1,1.2137956994486345,-9.68,0.21,-1.54,3.2579837056941754,7.327881697061677
175,3.133472,-1,0.9802550688468793,-9.67,0.05,-1.57,3.244634001027273,7.266759913639774
176,3.15048,-1,0.7942921376924236,-9.67,-0.11,-1.59,3.231555633629391,7.201495830627402
177,3.1702879999999998,-1,0.610409698481274,-9.66,-0.29,-1.61,3.218087249924782,7.135053165156087
178,3.1793799999999997,-1,0.610409698481274,-9.66,-0.29,-1.61,3.200094027275665,7.060248177677897
179,3.196304,-1,1.2433824833895644,-9.65,-0.56,-1.63,3.183076825615479,6.995580134664107
180,3.2163,-1,1.7117242768623688,-9.63,-0.74,-1.64,3.167098907056489,6.9447704595963256
181,3.2334639999999997,-1,1.7533967035442948,-9.62,-0.93,-1.65,3.1569076865873624,6.894153295393393
182,3.250492,-1,1.27,-9.61,-1.02,-1.65,3.152087125907728,6.839539662470587
183,3.270352,0,0.3220248437620924,-9.58,-1.21,-1.66,3.141780415092088,6.774993636712366
184,3.279376,0,0.3220248437620924,-9.58,-1.21,-1.66,3.122110874371053,6.697544756445694
185,3.296312,0,0.6843244844370249,-9.55,-1.45,-1.66,3.104395342816076,6.625711690100102
186,3.3161639999999997,2,0.3672873534441392,-9.53,-1.62,-1.64,3.0900456136494485,6.5557951567461314
187,3.3333519999999996,2,0.8307225770376052,-9.5,-1.78,-1.61,3.074012085341347,6.485736021631909
188,3.35038,3,0.49497474683058323,-9.49,-1.86,-1.59,3.05658001361267,6.416668176190541
189,3.3705279999999997,3,1.0885311203635843,-9.46,-2.03,-1.53,3.044641911351029,6.352265581839875
190,3.387524,4,1.4915093026863762,-9.44,-2.19,-1.46,3.036954859460315,6.293835932898172
191,3.406656,5,2.1889495197468576,-9.42,-2.34,-1.39,3.0376001368980714,6.248688369536786
192,3.426528,6,3.416211351775531,-9.39,-2.47,-1.3,3.0540629734032567,6.224026415499452
193,3.443384,7,4.071928290134786,-9.37,-2.58,-1.22,3.084775603781861,6.206781623944691
194,3.4636679999999997,9,6.833191055429373,-9.37,-2.63,-1.18,3.1636344657704494,6.23702651189062
195,3.482036,11,5.066922142681887,-9.35,-2.71,-1.12,3.243418417921685,6.265962319045294
196,3.499132,13,6.188553950641458,-9.34,-2.77,-1.04,3.3150317583976996,6.281819296234241
197,3.519008,15,6.218142809553348,-9.33,-2.84,-0.95,3.4000482929063063,6.324762216180275
198,3.536192,18,5.637481707287395,-9.34,-2.86,-0.83,3.446488405594889,6.34627090957219
199,3.5558359999999998,21,5.266355476038434,-9.36,-2.82,-0.67,3.474762834934863,6.373013565930033
200,3.575884,24,5.646954931642362,-9.41,-2.71,-0.48,3.492107067038509,6.402053756999845
201,3.5927279999999997,28,5.604052105396595,-9.47,-2.51,-0.27,3.5081077378515224,6.4164549058090055
202,3.612768,31,4.647515465278196,-9.51,-2.37,-0.17,3.535576965426411,6.438820780410386
203,3.6314119999999996,34,2.196269564511606,-9.59,-2.04,-0.03,3.5533990809000366,6.422263712001303
204,3.6483879999999997,37,3.054275691551108,-9.65,-1.69,0.05,3.557252158262092,6.386475507677984
205,3.6683839999999996,38,4.288624488108046,-9.71,-1.36,0.11,3.5583891619466868,6.379534991217434
206,3.6855279999999997,39,3.7731286752508195,-9.75,-1.01,0.18,3.554526611798957,6.368285506876965
207,3.705532,39,2.9449787775126666,-9.78,-0.63,0.25,3.5622778693981068,6.355125185162725
208,3.725656,39,3.0894983411550814,-9.79,-0.2,0.33,3.575819348108297,6.3354892614739775
209,3.742464,39,2.916761903207048,-9.79,0.01,0.36,3.5827425861068294,6.305611040110818
210,3.762632,38,2.5053143515335554,-9.78,0.45,0.38,3.598809273440522,6.279932424606838
211,3.781212,37,1.8131464364468743,-9.75,0.89,0.36,3.608452784686162,6.239696092870396
212,3.798292,36,1.8872731651777386,-9.7,1.33,0.31,3.60964093127695,6.19094284381149
213,3.8182,34,1.9174983702731014,-9.64,1.78,0.25,3.6018044150236372,6.148460707218583
214,3.8352519999999997,32,1.9294040530692373,-9.54,2.21,0.21,3.5799884077003012,6.100904564823218
215,3.8549919999999998,31,1.6622274212634083,-9.49,2.43,0.2,3.5485476027180423,6.0559991350181015
216,3.875288,29,1.6514841809717706,-9.31,3.06,0.18,3.506557683020772,6.0092718479008
217,3.892064,27,1.9234864179400903,-9.18,3.43,0.19,3.462930952381976,5.958903868827693
218,3.9123479999999997,25,2.53507396341803,-9.11,3.6,0.19,3.4094293433591143,5.923767755758647
219,3.9309439999999998,22,3.250753758745808,-8.99,3.9,0.21,3.353011758469987,5.897209549462541
220,3.9478239999999998,20,3.6303167905845353,-8.86,4.17,0.22,3.295858006344762,5.874930952442109
221,3.9677439999999997,17,3.289939209164814,-8.75,4.41,0.24,3.234304626836232,5.863501869742831
