,Time,Angle,LinAcc,GravX,GravY,GravZ,LinVel1,LinVel2
0,0.020016,5,8.296228058581804,-8.9,-3.67,1.83,0.0,0.0
1,0.036944,7,9.673825510107157,-8.8,-3.85,1.95,-10.295762405547551,-3.997357665227981
2,0.056167999999999996,9,9.478887065473456,-8.72,-4.0,2.02,-10.139461565639296,-3.9501131834369705
3,0.076144,13,11.161733736297421,-8.67,-4.09,2.03,-9.960715760007345,-3.8808060543543537
4,0.09318,17,12.11774731540479,-8.66,-4.12,1.99,-9.788744662316462,-3.819362826241424
5,0.113008,22,12.80134367947365,-8.7,-4.08,1.91,-9.572390769698783,-3.70916634960367
6,0.12978399999999998,28,8.367000657344304,-8.8,-3.93,1.81,-9.429899026504064,-3.668457668791911
7,0.146672,34,3.5062943401830946,-8.86,-3.8,1.75,-9.362787395800636,-3.7050509573182593
8,0.16713999999999998,39,6.319438266175246,-9.02,-3.46,1.65,-9.332613700781872,-3.741345801310259
9,0.184048,43,7.387915808940976,-9.18,-3.05,1.59,-9.304992503119717,-3.7623152214446973
10,0.203172,47,6.356956819107709,-9.31,-2.66,1.53,-9.274304573761746,-3.7677381408607657
11,0.223188,51,6.176228622711435,-9.42,-2.25,1.48,-9.272527388690298,-3.77915741244451
12,0.239948,53,4.666411897807564,-9.53,-1.8,1.44,-9.285033652967732,-3.825147476368031
13,0.260112,54,3.972014602188668,-9.57,-1.55,1.44,-9.28574878589448,-3.8749062518805397
14,0.277948,54,3.553603804590489,-9.63,-1.04,1.46,-9.289330888117746,-3.944644178414353
15,0.28694,54,3.553603804590489,-9.63,-1.04,1.46,-9.308562288221781,-4.049541564488946
16,0.307092,54,2.490481881082454,-9.69,-0.27,1.45,-9.321698472547382,-4.125492748605575
17,0.326192,52,3.2151671807232667,-9.69,0.3,1.42,-9.349160404228762,-4.2078551915508005
18,0.343184,50,5.512349771195583,-9.67,0.86,1.37,-9.404169049469496,-4.270557599012768
19,0.36292399999999997,47,6.528996860161597,-9.61,1.38,1.33,-9.49658095331026,-4.288560899246745
20,0.37967999999999996,43,7.290219475434193,-9.53,1.88,1.32,-9.5882408795149,-4.309634896272593
21,0.398856,38,8.17798263632297,-9.48,2.11,1.32,-9.685056256365058,-4.298177165910536
22,0.407836,38,8.17798263632297,-9.48,2.11,1.32,-9.740392585544678,-4.361590273321825
23,0.42647999999999997,29,8.001387379698597,-9.31,2.74,1.34,-9.822261532518521,-4.347617577517943
24,0.443604,23,7.138389174036395,-9.2,3.08,1.36,-9.866144772788102,-4.3548422021503335
25,0.46349599999999996,17,4.066189862758502,-9.1,3.38,1.37,-9.87536877801494,-4.380252850535843
26,0.48041999999999996,12,4.950646422438185,-9.0,3.63,1.33,-9.86869509560063,-4.440803773375978
27,0.50046,10,6.604165352260647,-8.96,3.74,1.3,-9.828042577891527,-4.461875950878966
28,0.52074,9,7.280027472475636,-8.88,3.95,1.21,-9.816974289933857,-4.457941627121611
29,0.537588,10,5.172707221562033,-8.82,4.09,1.19,-9.833352248664774,-4.489891181544508
30,0.5575399999999999,12,5.293042603267048,-8.84,4.07,1.2,-9.807540996105352,-4.5223362527774835
31,0.576276,14,5.5677733430878815,-8.89,3.95,1.21,-9.79160489032525,-4.5574435204775
32,0.593228,14,23.29334668955923,-8.98,3.72,1.25,-9.777292140147209,-4.449668058566255
33,0.61322,17,4.908900080466092,-9.05,3.52,1.32,-9.719779914657856,-4.304609791338551
34,0.630164,21,9.747194468153387,-9.09,3.39,1.37,-9.741882277130195,-4.317294749808117
35,0.649624,23,20.415459828277196,-9.12,3.32,1.36,-9.791975515485893,-4.160663514989319
36,0.670356,23,20.71069530460047,-9.16,3.23,1.28,-9.78031562279912,-3.87120118236738
37,0.687264,23,9.533126454631764,-9.27,2.95,1.18,-9.702284131541301,-3.7523713047003
38,0.707484,22,4.2476934917670315,-9.36,2.68,1.11,-9.621274906200927,-3.749898606527678
39,0.72604,21,2.944061820003106,-9.43,2.45,1.05,-9.593451719459088,-3.8200248922305446
40,0.742976,19,3.7245268155834235,-9.5,2.15,1.03,-9.579140821431817,-3.9004066751498696
41,0.762864,18,3.8604921965987704,-9.58,1.78,1.01,-9.538930401476971,-3.9618326375781994
42,0.779824,16,4.007131143349317,-9.65,1.43,0.98,-9.500614980075088,-4.0319665831409095
43,0.799928,15,2.415905627295901,-9.69,1.09,0.97,-9.468247777548086,-4.104253609007856
44,0.820176,13,1.346291201783626,-9.72,0.73,0.98,-9.464107371096857,-4.2030165197957245
45,0.83688,11,2.4724077333643817,-9.74,0.34,1.01,-9.46316424205325,-4.307974137774838
46,0.8570439999999999,9,2.415243258969994,-9.75,0.15,1.02,-9.444575581422571,-4.395548231955593
47,0.8755959999999999,7,3.312551886386083,-9.74,-0.23,1.07,-9.436859234370932,-4.479268595672742
48,0.892516,5,3.809330649864881,-9.72,-0.62,1.12,-9.438359971078727,-4.555868860901528
49,0.9123199999999999,4,4.214890271406837,-9.68,-0.99,1.19,-9.436065401131124,-4.613264416824566
50,0.929024,2,4.595737155234185,-9.63,-1.34,1.25,-9.439035330993274,-4.6765294480427295
51,0.947816,2,5.67276828365129,-9.6,-1.52,1.28,-9.439643390129419,-4.716897962424431
52,0.967788,0,6.341167085008879,-9.53,-1.86,1.33,-9.42159568070989,-4.733778195318463
53,0.98464,0,5.062272217097773,-9.46,-2.17,1.37,-9.392865652171135,-4.774544207244382
54,1.004864,0,4.82933742867487,-9.39,-2.43,1.41,-9.35834783282655,-4.811371641991799
55,1.024436,0,5.346830837047307,-9.31,-2.7,1.47,-9.34414272959269,-4.848639050828912
56,1.041204,2,8.344519159304507,-9.21,-2.98,1.55,-9.347571266555601,-4.8707021639449675
57,1.0610359999999999,4,8.312412405553518,-9.1,-3.23,1.66,-9.340351180716787,-4.842383422033308
58,1.077736,5,7.146166804658285,-9.0,-3.46,1.75,-9.31024128805539,-4.850155677113509
59,1.096376,7,9.748507578085992,-8.95,-3.58,1.79,-9.206393781418283,-4.8295487033518025
60,1.116484,10,11.028100471069349,-8.84,-3.8,1.85,-9.061735726051934,-4.757512077511064
61,1.133468,14,11.9022224815368,-8.75,-4.0,1.86,-8.941937351846626,-4.699639166483005
62,1.152436,18,12.16605934557283,-8.72,-4.07,1.82,-8.806705554882269,-4.608226973120166
63,1.172532,24,11.285499545877444,-8.76,-4.01,1.82,-8.682780949177541,-4.509437100864346
64,1.189552,31,10.06169468827195,-8.83,-3.82,1.87,-8.587512280344436,-4.4646238694172045
65,1.209244,36,3.0052620518018056,-8.96,-3.49,1.9,-8.533265549747167,-4.472818004839908
66,1.2263,42,3.7251308701842945,-9.11,-3.04,1.96,-8.51731428603692,-4.552272605486682
67,1.24322,46,5.787762952989696,-9.19,-2.83,1.91,-8.47257859972881,-4.6086449152280995
68,1.2635159999999999,50,5.034361925805494,-9.33,-2.43,1.73,-8.42638062359369,-4.635673383443557
69,1.280548,54,6.199499979837084,-9.47,-1.96,1.55,-8.412293391399993,-4.676857206940577
70,1.3004,56,6.815871184228763,-9.59,-1.45,1.4,-8.398865343867989,-4.684518024251529
71,1.320336,57,4.740696151410676,-9.67,-0.88,1.33,-8.407999821175183,-4.706173552535345
72,1.337176,57,5.724936680872549,-9.71,-0.28,1.31,-8.444930303900374,-4.75490431557299
73,1.357272,57,4.464952407361135,-9.71,0.0,1.3,-8.496805802714391,-4.789367701499886
74,1.3752119999999999,55,5.508865581950608,-9.69,0.63,1.29,-8.548748342816495,-4.836753945621231
75,1.392064,52,7.1893115108471966,-9.64,1.26,1.26,-8.608958386524515,-4.866610496922787
76,1.411876,48,7.655984587236315,-9.56,1.8,1.23,-8.685470687310517,-4.856404385260642
77,1.4287999999999998,43,8.037568040147468,-9.45,2.29,1.18,-8.748755072229008,-4.860456934413191
78,1.437824,43,8.037568040147468,-9.45,2.29,1.18,-8.790675209970173,-4.92477731190437
79,1.458008,34,9.42393230026617,-9.35,2.71,1.15,-8.843715734275122,-4.885407241954386
80,1.4669839999999998,34,9.42393230026617,-9.35,2.71,1.15,-8.877204795638846,-4.937669417112669
81,1.483796,22,8.689539688614122,-9.2,3.17,1.14,-8.914166294173084,-4.922258963059612
82,1.5041959999999999,15,4.372985250375308,-9.12,3.39,1.16,-8.938795686270703,-4.925872600167391
83,1.5235159999999999,8,6.574884029395499,-9.06,3.55,1.17,-8.94243061146385,-4.956967574410275
84,1.540524,4,12.367930303813973,-9.0,3.7,1.17,-8.960124116781998,-4.93272927280613
85,1.560384,3,13.065148296135026,-8.95,3.81,1.2,-8.96169381814508,-4.817030193794107
86,1.577108,4,8.723777851366918,-8.93,3.83,1.28,-8.934306075171367,-4.771682584834167
87,1.59646,7,5.196085064738644,-8.94,3.79,1.32,-8.912831643089,-4.773845382743399
88,1.616536,10,6.4260563333976455,-8.99,3.66,1.35,-8.900332813729339,-4.794033718874378
89,1.633464,10,25.647840065003525,-9.05,3.49,1.38,-8.90881276271775,-4.659411651243781
90,1.6540679999999999,13,8.771105973593068,-9.11,3.29,1.46,-8.879837739381097,-4.441679060639629
91,1.673212,18,16.088716542968864,-9.15,3.18,1.47,-8.86106154732592,-4.340572230996569
92,1.690448,21,23.71435008597115,-9.19,3.12,1.37,-8.8762326153695,-4.134400794273832
93,1.710432,21,13.76395655325895,-9.23,3.06,1.24,-8.843851109453155,-3.896768945820117
94,1.727568,21,9.125535600719555,-9.33,2.76,1.15,-8.79145186836918,-3.8375031685303007
95,1.7471599999999998,21,4.516824105497136,-9.37,2.63,1.12,-8.750276441514778,-3.840714004333675
96,1.76722,20,2.7958898404622454,-9.46,2.35,1.05,-8.736427648179134,-3.9042188749411704
97,1.7842399999999998,18,4.16919656528689,-9.53,2.04,0.99,-8.723259646729145,-3.981797381113717
98,1.804608,17,5.415634773505318,-9.61,1.66,0.94,-8.670888520319274,-4.021036850244924
99,1.8234199999999998,15,3.4915182943814003,-9.67,1.3,0.9,-8.621896458198393,-4.074107559973854
100,1.8403919999999998,13,1.3497036711811967,-9.71,0.95,0.88,-8.608389153502898,-4.1698763418595615
101,1.860304,11,0.9026627277117406,-9.74,0.58,0.89,-8.613166946023405,-4.284303173477651
102,1.87724,9,1.684547416963975,-9.76,0.18,0.91,-8.623220762937718,-4.399246069458009
103,1.896872,8,2.5287546342023774,-9.76,-0.02,0.93,-8.623992471752274,-4.494739688009229
104,1.9168399999999999,6,2.991370923172183,-9.75,-0.41,0.96,-8.614136214669255,-4.5764781459298725
105,1.933692,5,3.7210348023097017,-9.72,-0.77,1.0,-8.604152242173878,-4.65677080677243
106,1.9539039999999999,4,3.1052375110448476,-9.68,-1.14,1.05,-8.587794702557018,-4.72463589025914
107,1.9728439999999998,3,3.2818439938546744,-9.62,-1.49,1.09,-8.576205488008306,-4.8010016198932135
108,1.98972,2,5.509863882166237,-9.56,-1.84,1.14,-8.56172034689057,-4.863668580320816
109,2.009512,2,5.0373504940593525,-9.49,-2.16,1.18,-8.526043442362806,-4.896144738339158
110,2.026288,2,5.080098424243373,-9.41,-2.43,1.24,-8.495386848201253,-4.948130968297903
111,2.043104,2,6.270287074767789,-9.38,-2.55,1.27,-8.4689898892016,-4.989548318507689
112,2.063196,2,8.937326222086782,-9.29,-2.8,1.36,-8.432753954853574,-4.97362402681296
113,2.07996,4,9.40436069065835,-9.19,-3.06,1.47,-8.40868542441104,-4.956735398595804
114,2.099328,5,8.96551727453581,-9.1,-3.28,1.59,-8.37046883165117,-4.915692891866335
115,2.119356,8,9.583183187229595,-9.0,-3.48,1.68,-8.305889971300061,-4.866797596927686
116,2.1361,11,9.530445949691966,-8.92,-3.65,1.74,-8.243796095066617,-4.843629685278849
117,2.156208,15,12.637950783255963,-8.89,-3.72,1.75,-8.104079707267399,-4.757600016011258
118,2.173788,19,13.99121152724095,-8.85,-3.82,1.76,-7.9488409418965995,-4.6603810707874604
119,2.190712,24,13.902604072618914,-8.82,-3.9,1.74,-7.839348950670523,-4.561194994666918
120,2.210572,30,7.743539242491123,-8.84,-3.85,1.74,-7.752275734715532,-4.4831001830333435
121,2.2274599999999998,37,7.479164391828809,-8.9,-3.67,1.83,-7.685058730259419,-4.4914110650306185
122,2.2467639999999998,42,8.04860857539985,-9.02,-3.29,1.95,-7.578183248810679,-4.478388391836397
123,2.266928,47,10.80253673911827,-9.16,-2.85,2.02,-7.4346506170156195,-4.425182536260895
124,2.2837359999999998,53,7.686162891846621,-9.3,-2.42,1.9,-7.3300801983267325,-4.4066548960477405
125,2.3041199999999997,56,8.295944792487472,-9.38,-2.2,1.79,-7.264205381034005,-4.380616646014477
126,2.3225439999999997,59,7.35832181954554,-9.53,-1.7,1.55,-7.252720269668653,-4.373260933469901
127,2.3395799999999998,59,5.905810697948251,-9.63,-1.15,1.43,-7.262297012981593,-4.397128444171358
128,2.35952,59,5.71774431047769,-9.69,-0.61,1.36,-7.29843938199481,-4.418092992222821
129,2.376496,59,5.6505132510241936,-9.71,-0.06,1.32,-7.352807018526202,-4.458450613526264
130,2.39648,58,5.35161657819392,-9.7,0.54,1.28,-7.409263904859109,-4.485368723758185
131,2.416592,55,6.885855066729186,-9.66,1.1,1.22,-7.461564010496982,-4.4991601003823085
132,2.43328,51,7.929319012374266,-9.6,1.59,1.16,-7.515763175500603,-4.512393679351739
133,2.453296,47,9.063012744115502,-9.56,1.83,1.13,-7.5871853849076425,-4.479185814618262
134,2.471952,41,10.068222285984753,-9.47,2.29,1.09,-7.657120687369124,-4.437581045742959
135,2.48882,35,10.164059228477567,-9.36,2.69,1.05,-7.716815113626808,-4.40379337493545
136,2.497848,35,10.164059228477567,-9.36,2.69,1.05,-7.757797995088987,-4.448883639706228
137,2.517788,24,9.322987718537444,-9.23,3.14,1.0,-7.799270016896497,-4.391449173129956
138,2.534468,15,7.493817451739801,-9.17,3.31,0.97,-7.809214151060919,-4.388048409495319
139,2.5547679999999997,10,3.782274448000832,-9.15,3.37,0.95,-7.7803243075747375,-4.41044746819842
140,2.57254,5,9.266380091492039,-9.1,3.54,0.87,-7.758682676417008,-4.431348515445954
141,2.589572,3,12.50347551683131,-9.02,3.76,0.75,-7.771944551826646,-4.382807816570946
142,2.609308,3,7.209944521284474,-8.98,3.87,0.65,-7.783928521308084,-4.325127179120287
143,2.6262239999999997,5,4.837364985195969,-9.0,3.84,0.57,-7.788513197692669,-4.3600824267999485
144,2.64544,7,2.133565091577944,-9.07,3.69,0.48,-7.808979860443626,-4.429957122107773
145,2.665896,8,15.433891278611496,-9.1,3.61,0.46,-7.809972853992647,-4.387128569838943
146,2.68274,12,14.2128322300659,-9.16,3.43,0.53,-7.805499383200186,-4.274295255934337
147,2.703076,17,10.321962022793922,-9.19,3.31,0.72,-7.7798827330669695,-4.161676859456726
148,2.721676,22,26.728883253888476,-9.21,3.27,0.68,-7.75467770948112,-3.953955389869048
149,2.7387479999999997,22,27.581758464608452,-9.2,3.33,0.62,-7.759191367424596,-3.6272111436454324
150,2.758812,21,14.036050014159967,-9.31,3.01,0.52,-7.722727051564679,-3.3465526804718984
151,2.7758879999999997,21,11.174121889437219,-9.44,2.59,0.47,-7.660093062965274,-3.268159624244454
152,2.795712,19,2.9938770849852867,-9.52,2.29,0.44,-7.624136876735762,-3.2645778098954494
153,2.815756,17,2.1718655575334305,-9.61,1.9,0.43,-7.646341385361896,-3.349658128617598
154,2.83248,15,5.000639959045242,-9.69,1.42,0.41,-7.639342039576799,-3.4265330289734344
155,2.852764,13,4.104899511559327,-9.72,1.2,0.4,-7.584465587826242,-3.471036039148032
156,2.8712079999999998,11,2.348233378520968,-9.76,0.79,0.4,-7.557101278585727,-3.54837663912118
157,2.888136,9,2.39025103284153,-9.78,0.41,0.43,-7.555909321943425,-3.6451214985488782
158,2.897124,9,2.39025103284153,-9.78,0.41,0.43,-7.57239886898928,-3.760489313751169
159,2.9170439999999997,7,3.51830925303618,-9.78,-0.15,0.55,-7.5754046109988895,-3.8384914447892946
160,2.933764,6,4.955744141902405,-9.77,-0.54,0.63,-7.577518963469099,-3.904499749893077
161,2.953872,5,4.436034264971361,-9.75,-0.73,0.66,-7.566975139380863,-3.9469262012758364
162,2.971632,4,3.6982293060328204,-9.71,-1.08,0.72,-7.556010880484445,-4.01154533225079
163,2.988736,3,4.808887605257581,-9.66,-1.44,0.78,-7.543137046275326,-4.075643859910908
164,2.9977679999999998,3,4.808887605257581,-9.66,-1.44,0.78,-7.547154376798822,-4.169061378545695
165,3.017784,3,3.4778297830687457,-9.58,-1.89,0.86,-7.53092907345846,-4.222979302408795
166,3.034548,3,4.318089855480083,-9.51,-2.17,0.93,-7.524645803799439,-4.294485295483945
167,3.054764,3,5.835717607972476,-9.47,-2.31,0.98,-7.509616439911278,-4.328702001128839
168,3.0719239999999997,4,6.695042942356681,-9.34,-2.75,1.12,-7.494117344854697,-4.358039467092485
169,3.0886959999999997,5,8.07975865976206,-9.29,-2.91,1.17,-7.467356841065417,-4.3709893723425886
170,3.0976999999999997,5,8.07975865976206,-9.29,-2.91,1.17,-7.461932800485244,-4.435090616855561
171,3.1177599999999996,7,8.962516387711656,-9.13,-3.3,1.35,-7.41841442628625,-4.401007989614868
172,3.1346879999999997,9,9.54928793156851,-9.03,-3.53,1.46,-7.381557910240681,-4.381175469341951
173,3.154708,12,8.837358202539942,-8.94,-3.71,1.53,-7.325176877468884,-4.333976533024991
174,3.171864,15,9.078050451501136,-8.87,-3.84,1.58,-7.271562278314298,-4.317149549076099
175,3.188768,19,12.697936840290238,-8.85,-3.89,1.62,-7.178377001230074,-4.2699502959713485
176,3.209084,24,18.084650950460723,-8.81,-3.93,1.7,-7.048778657825026,-4.094112160678371
177,3.2260679999999997,31,16.016051323594088,-8.81,-3.86,1.85,-6.966338680899902,-3.941380388452572
178,3.2455559999999997,37,9.283372232114793,-8.87,-3.61,2.07,-6.851944823897094,-3.8317141968112125
179,3.2654159999999997,43,11.067366443739,-8.99,-3.18,2.25,-6.7066791174250575,-3.7664827532454552
180,3.28226,49,9.714839164906438,-9.15,-2.68,2.26,-6.580222239666217,-3.7283064090949125
181,3.3024999999999998,54,7.980607746280981,-9.24,-2.45,2.17,-6.454620049129282,-3.686079877839166
182,3.320664,58,11.6076052655145,-9.41,-2.01,1.87,-6.398923314020488,-3.645031118751511
183,3.337796,59,8.546794720829558,-9.55,-1.5,1.59,-6.376523252753097,-3.6092399199539535
184,3.357596,59,6.925987294241883,-9.64,-0.99,1.45,-6.366375497824842,-3.592910769490217
185,3.374656,59,5.421383587240438,-9.69,-0.49,1.39,-6.384472695104163,-3.624439087356645
186,3.3943079999999997,58,6.221149411483379,-9.7,0.05,1.38,-6.412716446073812,-3.646890949596653
187,3.4143239999999997,56,6.223809123037114,-9.69,0.6,1.37,-6.437407544727131,-3.6591931960686424
188,3.4310479999999997,52,6.7228044743246835,-9.67,0.86,1.36,-6.463560570036439,-3.6877850046529765
189,3.451316,48,8.32094345612323,-9.62,1.36,1.32,-6.506326382561921,-3.6721830546112884
190,3.469884,43,8.82277734049772,-9.54,1.83,1.29,-6.564247661298353,-3.649872142220925
191,3.486792,38,8.935955460945404,-9.44,2.31,1.28,-6.6305059967412685,-3.636591206602997
192,3.5067399999999997,32,8.290048250764286,-9.31,2.78,1.26,-6.708304960600419,-3.601630437067879
193,3.5237279999999997,25,7.440981118105327,-9.19,3.17,1.21,-6.773139343907923,-3.6048624650941683
194,3.5431239999999997,18,7.278330852606248,-9.14,3.32,1.17,-6.804781860769337,-3.598965969087679
195,3.563192,11,4.401193020079896,-9.06,3.57,1.07,-6.776206450955831,-3.6186250180346136
196,3.580084,6,7.183766421592506,-9.0,3.76,0.97,-6.7383185837027,-3.657629842075721
197,3.600368,5,9.64981865114573,-8.93,3.93,0.88,-6.742461572931406,-3.623755013753481
198,3.619156,5,4.22229795253722,-8.89,4.03,0.85,-6.76779812420188,-3.630291741863953
199,3.63602,7,4.676494413553811,-8.88,4.06,0.82,-6.777987958274398,-3.6921085161185445
200,3.6557679999999997,11,2.9644729717101486,-8.94,3.95,0.78,-6.78302007422892,-3.753512995641916
201,3.672516,12,7.523230689005887,-8.99,3.82,0.76,-6.799713950347252,-3.8025403566725515
202,3.691724,12,23.91549497710637,-9.04,3.71,0.77,-6.817665899036916,-3.6374542268606795
203,3.7121039999999996,15,5.762126343633919,-9.1,3.54,0.87,-6.817591030028101,-3.4718906570878083
204,3.729088,20,14.303957494344004,-9.15,3.4,0.86,-6.836556066985265,-3.4383408646211677
205,3.749552,21,24.43504450579127,-9.2,3.28,0.8,-6.82501112252274,-3.1788147876412545
206,3.768792,21,12.630364206941936,-9.27,3.12,0.68,-6.772639934923596,-2.9590969473102255
207,3.785876,21,8.224803949031248,-9.38,2.77,0.6,-6.734791519515776,-2.917803492407373
208,3.8057559999999997,19,2.8389610775775,-9.47,2.46,0.55,-6.708365515776588,-2.9446810595283566
209,3.82254,17,1.8530245546133488,-9.56,2.07,0.54,-6.702088598086222,-3.0421573075884822
210,3.841576,16,4.770597446861347,-9.61,1.85,0.53,-6.671838913314746,-3.115965064863918
211,3.861748,14,5.202163011671202,-9.69,1.4,0.49,-6.615190953509565,-3.1522311943646315
212,3.878748,11,1.7083910559353792,-9.74,0.99,0.48,-6.594687235163976,-3.23034287627544
213,3.887704,11,1.7083910559353792,-9.74,0.99,0.48,-6.607909927631733,-3.351893917463954
214,3.907832,9,2.420103303580242,-9.78,0.33,0.51,-6.617062481042346,-3.44719614171526
215,3.924728,7,2.2457738087349757,-9.79,-0.06,0.54,-6.637812797998457,-3.5446302033558936
216,3.944104,5,3.0863570759068044,-9.77,-0.45,0.59,-6.649153044485843,-3.6298239108309502
217,3.9640799999999996,4,3.7637481318494204,-9.74,-0.83,0.63,-6.64724545788728,-3.6982564515013614
218,3.980812,3,3.2920206560712835,-9.71,-1.18,0.67,-6.6462630897990955,-3.77607928130708
219,4.000967999999999,2,4.483146216665256,-9.68,-1.35,0.7,-6.634148858289144,-3.8345725410491127
220,4.018948,2,5.0804822605733015,-9.63,-1.69,0.74,-6.618592323416509,-3.8854469125242055
